,Flux
0,0.0
1,0.0
2,0.0
3,0.0
4,0.0
5,0.0
6,0.0
7,0.0003195439611519241
8,0.07523647328260757
9,0.14579227951922946
10,0.2071787190263234
11,0.25521296794942605
12,0.28662276960762606
13,0.29926948033677225
14,0.2922938019381233
15,0.2661742533166976
16,0.2226943938724617
17,0.16482105303850902
18,0.09650188318734919
19,0.02239607681710071
20,0.0
21,0.0
22,0.0
23,0.0
